rectangle
unit r
# 2dF QSO Redshift Survey: UKST field limits for the NGP
# RA/Dec in radians, B1950, original APM coord. system
#  RA_min    RA_max   Dec_min   Dec_max  UKST_field
  2.572862  2.660129 -0.047837  0.039429   853
  2.660129  2.746899 -0.047563  0.039704   854
  2.746899  2.833492 -0.047460  0.039806   855
  2.833492  2.922396 -0.047173  0.040093   856
  2.922396  3.008734 -0.047429  0.039838   857
  3.008734  3.094838 -0.047418  0.039849   858
  3.094838  3.183894 -0.046993  0.040274   859
  3.183894  3.271190 -0.046882  0.040384   860
  3.271190  3.358087 -0.043601  0.043665   861
  3.358087  3.444664 -0.047602  0.039664   862
  3.444664  3.532911 -0.046812  0.040454   863
  3.532911  3.619867 -0.046961  0.040306   864
  3.619867  3.707045 -0.047379  0.039888   865
  3.707045  3.794893 -0.046637  0.040630   866
  3.794893  3.882256 -0.046700  0.040566   867
